r (km)        	 rho (g/cm3) 	 T (K)       	 P (dyne/cm2) 		 Linf = 3.223073e+38
1.19999059e+01 	 1.276913e+05 	 1.247294e+09 	 1.604931e+22
1.20041631e+01 	 6.950743e+04 	 1.067760e+09 	 7.900433e+21
1.20084609e+01 	 3.498643e+04 	 8.965856e+08 	 3.579696e+21
1.20127588e+01 	 1.617151e+04 	 7.373538e+08 	 1.485864e+21
1.20162471e+01 	 8.042838e+03 	 6.183004e+08 	 6.771650e+20
1.20195979e+01 	 3.840407e+03 	 5.137111e+08 	 2.980128e+20
1.20221871e+01 	 2.064645e+03 	 4.401164e+08 	 1.509813e+20
1.20247763e+01 	 1.061294e+03 	 3.733034e+08 	 7.354439e+19
1.20273312e+01 	 5.267392e+02 	 3.143788e+08 	 3.490304e+19
1.20294399e+01 	 2.863799e+02 	 2.711520e+08 	 1.844774e+19
1.20315486e+01 	 1.518409e+02 	 2.328653e+08 	 9.608102e+18
1.20334180e+01 	 8.504043e+01 	 2.030182e+08 	 5.354711e+18
1.20352874e+01 	 4.708190e+01 	 1.769119e+08 	 2.986807e+18
1.20371568e+01 	 2.591577e+01 	 1.543761e+08 	 1.680418e+18
1.20390262e+01 	 1.427630e+01 	 1.351785e+08 	 9.617528e+17
1.20409520e+01 	 7.788582e+00 	 1.185933e+08 	 5.561220e+17
1.20428779e+01 	 4.317973e+00 	 1.048984e+08 	 3.334387e+17
1.20448038e+01 	 2.450078e+00 	 9.371919e+07 	 2.087925e+17
1.20467296e+01 	 1.431016e+00 	 8.467973e+07 	 1.371856e+17
1.20487521e+01 	 8.429665e-01 	 7.709807e+07 	 9.313479e+16
1.20507746e+01 	 5.161904e-01 	 7.110257e+07 	 6.673260e+16
1.20527971e+01 	 3.287464e-01 	 6.636580e+07 	 5.027493e+16
1.20556540e+01 	 1.853774e-01 	 6.130057e+07 	 3.631576e+16
1.20585108e+01 	 1.120358e-01 	 5.761543e+07 	 2.818991e+16
1.20613676e+01 	 7.196213e-02 	 5.488965e+07 	 2.313723e+16
1.20651091e+01 	 4.356600e-02 	 5.230068e+07 	 1.901064e+16
1.20688506e+01 	 2.836206e-02 	 5.044894e+07 	 1.642436e+16
1.20725921e+01 	 1.957628e-02 	 4.907954e+07 	 1.469246e+16
1.20763335e+01 	 1.416739e-02 	 4.803542e+07 	 1.346905e+16
1.20826754e+01 	 8.913602e-03 	 4.674695e+07 	 1.206901e+16
1.20890173e+01 	 6.084216e-03 	 4.583900e+07 	 1.115173e+16
1.20988954e+01 	 3.770909e-03 	 4.485809e+07 	 1.022202e+16
1.21087734e+01 	 2.585781e-03 	 4.417994e+07 	 9.614983e+15
1.21142314e+01 	 2.167901e-03 	 4.388522e+07 	 9.359980e+15
1.21284849e+01 	 1.482278e-03 	 4.328351e+07 	 8.855494e+15
1.21395531e+01 	 1.172405e-03 	 4.292618e+07 	 8.565943e+15
1.21621416e+01 	 8.133370e-04 	 4.236723e+07 	 8.127601e+15
1.21781532e+01 	 6.697878e-04 	 4.205551e+07 	 7.890705e+15
1.22140026e+01 	 4.913188e-04 	 4.149561e+07 	 7.478422e+15
1.22720965e+01 	 3.670916e-04 	 4.079085e+07 	 6.982916e+15
1.23301904e+01 	 3.121660e-04 	 4.019793e+07 	 6.585579e+15
1.23882843e+01 	 2.821874e-04 	 3.965703e+07 	 6.238167e+15
1.24145720e+01 	 2.725832e-04 	 3.942235e+07 	 6.091798e+15
1.24287500e+01 	 2.680567e-04 	 3.929771e+07 	 6.015118e+15
1.25037500e+01 	 2.488727e-04 	 3.865492e+07 	 5.631099e+15
1.25787500e+01 	 2.341514e-04 	 3.803245e+07 	 5.277039e+15
1.26537500e+01 	 2.216519e-04 	 3.742518e+07 	 4.947990e+15
1.27287500e+01 	 2.104148e-04 	 3.683069e+07 	 4.641006e+15
1.27787500e+01 	 2.033661e-04 	 3.644070e+07 	 4.447538e+15
1.28537500e+01 	 1.932673e-04 	 3.586457e+07 	 4.172872e+15
1.29287500e+01 	 1.837708e-04 	 3.529901e+07 	 3.915821e+15
1.30037500e+01 	 1.748378e-04 	 3.474382e+07 	 3.675213e+15
1.30537500e+01 	 1.691597e-04 	 3.437921e+07 	 3.523351e+15
1.31287500e+01 	 1.609309e-04 	 3.384006e+07 	 3.307475e+15
1.32037500e+01 	 1.531113e-04 	 3.331029e+07 	 3.105173e+15
1.32787500e+01 	 1.456856e-04 	 3.278972e+07 	 2.915567e+15
1.33537500e+01 	 1.386408e-04 	 3.227816e+07 	 2.737832e+15
1.34287500e+01 	 1.319580e-04 	 3.177534e+07 	 2.571182e+15
1.35037500e+01 	 1.255756e-04 	 3.128086e+07 	 2.414830e+15
1.35537500e+01 	 1.214644e-04 	 3.095573e+07 	 2.315985e+15
1.36037500e+01 	 1.175157e-04 	 3.063443e+07 	 2.221318e+15
1.36537500e+01 	 1.137139e-04 	 3.031684e+07 	 2.130626e+15
1.37037500e+01 	 1.100326e-04 	 3.000275e+07 	 2.043692e+15
1.37787500e+01 	 1.047671e-04 	 2.953821e+07 	 1.920029e+15
1.38537500e+01 	 9.975420e-05 	 2.908127e+07 	 1.803951e+15
1.39287500e+01 	 9.498022e-05 	 2.863176e+07 	 1.694975e+15
1.40037500e+01 	 9.043364e-05 	 2.818952e+07 	 1.592656e+15
1.40787500e+01 	 8.610523e-05 	 2.775442e+07 	 1.496578e+15
1.41537500e+01 	 8.198877e-05 	 2.732632e+07 	 1.406356e+15
1.42287500e+01 	 7.807519e-05 	 2.690508e+07 	 1.321623e+15
1.43037500e+01 	 7.436011e-05 	 2.649059e+07 	 1.242045e+15
1.43787500e+01 	 7.079990e-05 	 2.608253e+07 	 1.167264e+15
1.44537500e+01 	 6.741874e-05 	 2.568100e+07 	 1.097029e+15
1.45037500e+01 	 6.524873e-05 	 2.541685e+07 	 1.052585e+15
1.45225000e+01 	 6.450177e-05 	 2.531883e+07 	 1.036441e+15
1.45375000e+01 	 6.391509e-05 	 2.524067e+07 	 1.023703e+15
1.45875000e+01 	 6.183142e-05 	 2.498094e+07 	 9.822121e+14
1.46625000e+01 	 5.879037e-05 	 2.459657e+07 	 9.231413e+14
1.47375000e+01 	 5.584218e-05 	 2.421884e+07 	 8.677265e+14
1.48125000e+01 	 5.291194e-05 	 2.384812e+07 	 8.158048e+14
1.48875000e+01 	 4.985238e-05 	 2.348574e+07 	 7.673373e+14
1.49625000e+01 	 4.638112e-05 	 2.313449e+07 	 7.224497e+14
1.50000000e+01 	 4.436216e-05 	 2.296457e+07 	 7.014559e+14
