r (km)        	 rho (g/cm3) 	 T (K)       	 P (dyne/cm2) 		 Linf = 3.449108e+38
1.19998992e+01 	 1.211691e+05 	 1.265933e+09 	 1.604931e+22
1.20048490e+01 	 6.141392e+04 	 1.066257e+09 	 7.335421e+21
1.20098533e+01 	 2.838345e+04 	 8.785074e+08 	 3.051423e+21
1.20139137e+01 	 1.413045e+04 	 7.383891e+08 	 1.397372e+21
1.20178136e+01 	 6.768379e+03 	 6.156185e+08 	 6.207463e+20
1.20208384e+01 	 3.648749e+03 	 5.292153e+08 	 3.175906e+20
1.20238631e+01 	 1.887609e+03 	 4.511330e+08 	 1.572722e+20
1.20266860e+01 	 9.850714e+02 	 3.861749e+08 	 7.967774e+19
1.20295088e+01 	 4.989604e+02 	 3.290857e+08 	 3.975975e+19
1.20317842e+01 	 2.835415e+02 	 2.888295e+08 	 2.262885e+19
1.20340595e+01 	 1.595863e+02 	 2.536284e+08 	 1.294542e+19
1.20364504e+01 	 8.694525e+01 	 2.218775e+08 	 7.308151e+18
1.20388412e+01 	 4.759158e+01 	 1.951596e+08 	 4.234279e+18
1.20412320e+01 	 2.640417e+01 	 1.730224e+08 	 2.543426e+18
1.20436228e+01 	 1.496919e+01 	 1.549382e+08 	 1.597131e+18
1.20460136e+01 	 8.730406e+00 	 1.403391e+08 	 1.054204e+18
1.20485129e+01 	 5.148194e+00 	 1.281880e+08 	 7.218736e+17
1.20510122e+01 	 3.157088e+00 	 1.186168e+08 	 5.224642e+17
1.20535114e+01 	 2.014827e+00 	 1.110894e+08 	 3.979555e+17
1.20570561e+01 	 1.138164e+00 	 1.030558e+08 	 2.917309e+17
1.20606008e+01 	 6.900332e-01 	 9.725153e+07 	 2.297478e+17
1.20641455e+01 	 4.449653e-01 	 9.298194e+07 	 1.910701e+17
1.20688363e+01 	 2.696009e-01 	 8.890993e+07 	 1.590764e+17
1.20735270e+01 	 1.758707e-01 	 8.601666e+07 	 1.389949e+17
1.20782178e+01 	 1.216951e-01 	 8.388671e+07 	 1.255152e+17
1.20829085e+01 	 8.829712e-02 	 8.226772e+07 	 1.159674e+17
1.20907431e+01 	 5.611310e-02 	 8.029928e+07 	 1.051308e+17
1.20985777e+01 	 3.857893e-02 	 7.890909e+07 	 9.796560e+16
1.21102255e+01 	 2.454672e-02 	 7.746068e+07 	 9.091104e+16
1.21218732e+01 	 1.709521e-02 	 7.644448e+07 	 8.620267e+16
1.21364143e+01 	 1.190084e-02 	 7.552215e+07 	 8.209567e+16
1.21509554e+01 	 8.900818e-03 	 7.483036e+07 	 7.911631e+16
1.21654965e+01 	 7.017182e-03 	 7.428210e+07 	 7.681523e+16
1.21909602e+01 	 5.068944e-03 	 7.353368e+07 	 7.375802e+16
1.22117277e+01 	 4.135958e-03 	 7.304767e+07 	 7.182353e+16
1.22485800e+01 	 3.161235e-03 	 7.234507e+07 	 6.909598e+16
1.22738339e+01 	 2.758276e-03 	 7.193789e+07 	 6.755191e+16
1.23458981e+01 	 2.128366e-03 	 7.095706e+07 	 6.394019e+16
1.24031009e+01 	 1.879389e-03 	 7.028519e+07 	 6.155181e+16
1.24138112e+01 	 1.845251e-03 	 7.016579e+07 	 6.113451e+16
1.24148822e+01 	 1.841999e-03 	 7.015393e+07 	 6.109321e+16
1.24149893e+01 	 1.841675e-03 	 7.015275e+07 	 6.108909e+16
1.24150000e+01 	 1.841642e-03 	 7.015263e+07 	 6.108867e+16
1.25650000e+01 	 1.558039e-03 	 6.860304e+07 	 5.586668e+16
1.27150000e+01 	 1.418608e-03 	 6.717784e+07 	 5.136673e+16
1.28150000e+01 	 1.349569e-03 	 6.626641e+07 	 4.863525e+16
1.29650000e+01 	 1.261663e-03 	 6.494423e+07 	 4.486826e+16
1.30650000e+01 	 1.208796e-03 	 6.408899e+07 	 4.255108e+16
1.32150000e+01 	 1.135409e-03 	 6.284239e+07 	 3.933575e+16
1.33150000e+01 	 1.090228e-03 	 6.203468e+07 	 3.735209e+16
1.34650000e+01 	 1.025620e-03 	 6.085507e+07 	 3.459104e+16
1.35650000e+01 	 9.857874e-04 	 6.009021e+07 	 3.288450e+16
1.37150000e+01 	 9.289320e-04 	 5.897259e+07 	 3.050542e+16
1.38650000e+01 	 8.760293e-04 	 5.788980e+07 	 2.832593e+16
1.40150000e+01 	 8.268055e-04 	 5.684027e+07 	 2.632695e+16
1.41150000e+01 	 7.960268e-04 	 5.615847e+07 	 2.508631e+16
1.42650000e+01 	 7.519384e-04 	 5.516079e+07 	 2.335058e+16
1.44150000e+01 	 7.109666e-04 	 5.419282e+07 	 2.175418e+16
1.45150000e+01 	 6.850243e-04 	 5.356312e+07 	 2.076055e+16
1.46650000e+01 	 6.487088e-04 	 5.264190e+07 	 1.936875e+16
1.48150000e+01 	 6.144319e-04 	 5.174663e+07 	 1.808437e+16
1.49150000e+01 	 5.926668e-04 	 5.116372e+07 	 1.728318e+16
1.50650000e+01 	 5.619363e-04 	 5.031012e+07 	 1.615832e+16
1.51650000e+01 	 5.428387e-04 	 4.975433e+07 	 1.545605e+16
1.52650000e+01 	 5.243781e-04 	 4.920853e+07 	 1.478892e+16
1.54150000e+01 	 4.978938e-04 	 4.840811e+07 	 1.384992e+16
1.55650000e+01 	 4.730029e-04 	 4.762918e+07 	 1.297977e+16
1.57150000e+01 	 4.496363e-04 	 4.687093e+07 	 1.217275e+16
1.58650000e+01 	 4.276809e-04 	 4.613252e+07 	 1.142360e+16
1.59650000e+01 	 4.138097e-04 	 4.565095e+07 	 1.095402e+16
1.61150000e+01 	 3.937888e-04 	 4.494365e+07 	 1.029076e+16
1.62650000e+01 	 3.749973e-04 	 4.425438e+07 	 9.673842e+15
1.64150000e+01 	 3.573105e-04 	 4.358240e+07 	 9.099524e+15
1.65650000e+01 	 3.406299e-04 	 4.292709e+07 	 8.564453e+15
1.67150000e+01 	 3.248786e-04 	 4.228782e+07 	 8.065569e+15
1.68650000e+01 	 3.099909e-04 	 4.166402e+07 	 7.600082e+15
1.70150000e+01 	 2.959134e-04 	 4.105513e+07 	 7.165450e+15
1.71650000e+01 	 2.826043e-04 	 4.046067e+07 	 6.759364e+15
1.73150000e+01 	 2.700473e-04 	 3.988023e+07 	 6.379755e+15
1.74650000e+01 	 2.581072e-04 	 3.931313e+07 	 6.024536e+15
1.76150000e+01 	 2.467882e-04 	 3.875901e+07 	 5.691989e+15
1.77650000e+01 	 2.360657e-04 	 3.821751e+07 	 5.380497e+15
1.79150000e+01 	 2.259314e-04 	 3.768824e+07 	 5.088578e+15
1.80650000e+01 	 2.162952e-04 	 3.717068e+07 	 4.814763e+15
1.82150000e+01 	 2.071639e-04 	 3.666456e+07 	 4.557836e+15
1.83650000e+01 	 1.984765e-04 	 3.616940e+07 	 4.316560e+15
1.85150000e+01 	 1.902096e-04 	 3.568494e+07 	 4.089898e+15
1.86650000e+01 	 1.823631e-04 	 3.521089e+07 	 3.876861e+15
1.88150000e+01 	 1.749078e-04 	 3.474688e+07 	 3.676508e+15
1.89650000e+01 	 1.678120e-04 	 3.429256e+07 	 3.487965e+15
1.90650000e+01 	 1.632992e-04 	 3.399504e+07 	 3.368484e+15
1.92150000e+01 	 1.566732e-04 	 3.355600e+07 	 3.197812e+15
1.93650000e+01 	 1.504437e-04 	 3.312626e+07 	 3.037117e+15
1.95150000e+01 	 1.445126e-04 	 3.270523e+07 	 2.885631e+15
1.96650000e+01 	 1.388554e-04 	 3.229262e+07 	 2.742742e+15
1.97650000e+01 	 1.352566e-04 	 3.202222e+07 	 2.652026e+15
1.99150000e+01 	 1.299426e-04 	 3.162286e+07 	 2.522180e+15
2.00650000e+01 	 1.249552e-04 	 3.123163e+07 	 2.399662e+15
2.02150000e+01 	 1.201830e-04 	 3.084794e+07 	 2.283896e+15
2.03650000e+01 	 1.156102e-04 	 3.047160e+07 	 2.174466e+15
2.05150000e+01 	 1.112460e-04 	 3.010247e+07 	 2.070998e+15
2.06650000e+01 	 1.070885e-04 	 2.974037e+07 	 1.973135e+15
2.08150000e+01 	 1.031065e-04 	 2.938505e+07 	 1.880515e+15
2.09650000e+01 	 9.929710e-05 	 2.903633e+07 	 1.792827e+15
2.11150000e+01 	 9.565149e-05 	 2.869405e+07 	 1.709774e+15
2.12650000e+01 	 9.216227e-05 	 2.835803e+07 	 1.631081e+15
2.14150000e+01 	 8.882356e-05 	 2.802811e+07 	 1.556490e+15
2.15650000e+01 	 8.563043e-05 	 2.770416e+07 	 1.485768e+15
2.17150000e+01 	 8.257062e-05 	 2.738599e+07 	 1.418681e+15
2.18650000e+01 	 7.963793e-05 	 2.707346e+07 	 1.355020e+15
2.20150000e+01 	 7.682647e-05 	 2.676641e+07 	 1.294587e+15
2.21650000e+01 	 7.413824e-05 	 2.646477e+07 	 1.237210e+15
2.23150000e+01 	 7.154930e-05 	 2.616829e+07 	 1.182692e+15
2.24650000e+01 	 6.907587e-05 	 2.587696e+07 	 1.130898e+15
2.26150000e+01 	 6.669029e-05 	 2.559051e+07 	 1.081649e+15
2.27650000e+01 	 6.440183e-05 	 2.530892e+07 	 1.034820e+15
2.29150000e+01 	 6.221884e-05 	 2.503216e+07 	 9.902926e+14
2.30650000e+01 	 6.011956e-05 	 2.476000e+07 	 9.479217e+14
2.32150000e+01 	 5.808408e-05 	 2.449217e+07 	 9.075676e+14
2.33650000e+01 	 5.613279e-05 	 2.422879e+07 	 8.691544e+14
2.35150000e+01 	 5.426175e-05 	 2.396975e+07 	 8.325767e+14
2.36650000e+01 	 5.246677e-05 	 2.371495e+07 	 7.977345e+14
2.38150000e+01 	 5.074336e-05 	 2.346425e+07 	 7.645334e+14
2.39650000e+01 	 4.908672e-05 	 2.321755e+07 	 7.328838e+14
2.41150000e+01 	 4.749137e-05 	 2.297472e+07 	 7.027015e+14
2.42650000e+01 	 4.595022e-05 	 2.273567e+07 	 6.739079e+14
2.44150000e+01 	 4.447418e-05 	 2.250044e+07 	 6.464476e+14
2.45650000e+01 	 4.305392e-05 	 2.226885e+07 	 6.202417e+14
2.47150000e+01 	 4.168574e-05 	 2.204082e+07 	 5.952245e+14
2.48650000e+01 	 4.036509e-05 	 2.181626e+07 	 5.713344e+14
2.50150000e+01 	 3.907754e-05 	 2.159495e+07 	 5.485017e+14
2.51650000e+01 	 3.783939e-05 	 2.137701e+07 	 5.266925e+14
2.53150000e+01 	 3.667026e-05 	 2.116259e+07 	 5.058766e+14
2.54650000e+01 	 3.552055e-05 	 2.095112e+07 	 4.859575e+14
2.56150000e+01 	 3.442977e-05 	 2.074298e+07 	 4.669320e+14
2.57650000e+01 	 3.336087e-05 	 2.053770e+07 	 4.487208e+14
2.59150000e+01 	 3.233236e-05 	 2.033545e+07 	 4.313047e+14
2.60650000e+01 	 3.135322e-05 	 2.013630e+07 	 4.146555e+14
2.62150000e+01 	 3.040599e-05 	 1.993999e+07 	 3.987202e+14
2.63650000e+01 	 2.947924e-05 	 1.974633e+07 	 3.834545e+14
2.65150000e+01 	 2.858666e-05 	 1.955545e+07 	 3.688418e+14
2.66650000e+01 	 2.773708e-05 	 1.936744e+07 	 3.548603e+14
2.68150000e+01 	 2.690565e-05 	 1.918192e+07 	 3.414579e+14
2.69650000e+01 	 2.610985e-05 	 1.899910e+07 	 3.286254e+14
2.71150000e+01 	 2.534012e-05 	 1.881881e+07 	 3.163278e+14
2.72650000e+01 	 2.458905e-05 	 1.864091e+07 	 3.045345e+14
2.74150000e+01 	 2.386414e-05 	 1.846546e+07 	 2.932305e+14
2.75650000e+01 	 2.317115e-05 	 1.829254e+07 	 2.824000e+14
2.77150000e+01 	 2.250106e-05 	 1.812197e+07 	 2.720133e+14
2.78650000e+01 	 2.185104e-05 	 1.795368e+07 	 2.620487e+14
2.80150000e+01 	 2.121686e-05 	 1.778759e+07 	 2.524857e+14
2.81150000e+01 	 2.080607e-05 	 1.767813e+07 	 2.463277e+14
2.81900000e+01 	 2.051562e-05 	 1.759686e+07 	 2.418290e+14
2.83400000e+01 	 1.992481e-05 	 1.743559e+07 	 2.330849e+14
2.84900000e+01 	 1.933959e-05 	 1.727633e+07 	 2.246850e+14
2.85500000e+01 	 1.912686e-05 	 1.721348e+07 	 2.214333e+14
2.86000000e+01 	 1.894831e-05 	 1.716132e+07 	 2.187616e+14
2.87000000e+01 	 1.857978e-05 	 1.705750e+07 	 2.135154e+14
2.88500000e+01 	 1.802452e-05 	 1.690334e+07 	 2.059006e+14
2.90000000e+01 	 1.748626e-05 	 1.675155e+07 	 1.986039e+14
2.91500000e+01 	 1.695386e-05 	 1.660200e+07 	 1.916062e+14
2.93000000e+01 	 1.642170e-05 	 1.645481e+07 	 1.849010e+14
2.94500000e+01 	 1.587608e-05 	 1.631018e+07 	 1.784850e+14
2.96000000e+01 	 1.530985e-05 	 1.616834e+07 	 1.723569e+14
2.97500000e+01 	 1.470955e-05 	 1.602965e+07 	 1.665184e+14
2.99000000e+01 	 1.405323e-05 	 1.589476e+07 	 1.609833e+14
3.00000000e+01 	 1.356958e-05 	 1.580732e+07 	 1.574698e+14
