r (km)        	 rho (g/cm3) 	 T (K)       	 P (dyne/cm2) 		 Linf = 3.495117e+38
1.19999086e+01 	 1.198773e+05 	 1.269615e+09 	 1.604931e+22
1.20027504e+01 	 8.221789e+04 	 1.154355e+09 	 1.039064e+22
1.20080820e+01 	 3.781894e+04 	 9.499396e+08 	 4.286859e+21
1.20123886e+01 	 1.876508e+04 	 7.977800e+08 	 1.951143e+21
1.20165135e+01 	 8.956428e+03 	 6.645885e+08 	 8.613390e+20
1.20196947e+01 	 4.823723e+03 	 5.712220e+08 	 4.394334e+20
1.20228759e+01 	 2.489556e+03 	 4.867144e+08 	 2.166748e+20
1.20258318e+01 	 1.298217e+03 	 4.166140e+08 	 1.095149e+20
1.20287877e+01 	 6.562486e+02 	 3.549212e+08 	 5.446141e+19
1.20311620e+01 	 3.727132e+02 	 3.115235e+08 	 3.095127e+19
1.20335363e+01 	 2.095136e+02 	 2.735443e+08 	 1.767385e+19
1.20360001e+01 	 1.147927e+02 	 2.396658e+08 	 1.002647e+19
1.20384638e+01 	 6.315038e+01 	 2.110934e+08 	 5.834145e+18
1.20409276e+01 	 3.518783e+01 	 1.873709e+08 	 3.517216e+18
1.20433913e+01 	 2.002115e+01 	 1.679564e+08 	 2.215351e+18
1.20458551e+01 	 1.171150e+01 	 1.522590e+08 	 1.465944e+18
1.20489255e+01 	 6.285534e+00 	 1.369985e+08 	 9.417582e+17
1.20519959e+01 	 3.565150e+00 	 1.255091e+08 	 6.535349e+17
1.20550663e+01 	 2.137961e+00 	 1.168666e+08 	 4.859165e+17
1.20581367e+01 	 1.351635e+00 	 1.103307e+08 	 3.829382e+17
1.20625012e+01 	 7.641990e-01 	 1.035912e+08 	 2.953241e+17
1.20668657e+01 	 4.689449e-01 	 9.887002e+07 	 2.438578e+17
1.20712302e+01 	 3.078107e-01 	 9.546111e+07 	 2.112495e+17
1.20770801e+01 	 1.904782e-01 	 9.220779e+07 	 1.833939e+17
1.20829301e+01 	 1.271457e-01 	 8.990983e+07 	 1.655086e+17
1.20887801e+01 	 9.000030e-02 	 8.821567e+07 	 1.532175e+17
1.20946301e+01 	 6.672481e-02 	 8.692043e+07 	 1.443108e+17
1.21052905e+01 	 4.234917e-02 	 8.520842e+07 	 1.331645e+17
1.21159509e+01 	 2.931965e-02 	 8.400851e+07 	 1.257618e+17
1.21293349e+01 	 2.017463e-02 	 8.292013e+07 	 1.193288e+17
1.21427188e+01 	 1.490543e-02 	 8.211209e+07 	 1.147212e+17
1.21561028e+01 	 1.160709e-02 	 8.147886e+07 	 1.112082e+17
1.21786866e+01 	 8.300052e-03 	 8.065466e+07 	 1.067615e+17
1.21974509e+01 	 6.672895e-03 	 8.011640e+07 	 1.039327e+17
1.22298223e+01 	 5.005881e-03 	 7.937209e+07 	 1.001166e+17
1.22438381e+01 	 4.536307e-03 	 7.909785e+07 	 9.873804e+16
1.22917507e+01 	 3.512826e-03 	 7.829407e+07 	 9.478106e+16
1.23228849e+01 	 3.120911e-03 	 7.784479e+07 	 9.262256e+16
1.24045160e+01 	 2.542682e-03 	 7.681559e+07 	 8.781836e+16
1.24552948e+01 	 2.345010e-03 	 7.623981e+07 	 8.521413e+16
1.25855308e+01 	 2.059255e-03 	 7.487791e+07 	 7.928575e+16
1.25985544e+01 	 2.039902e-03 	 7.474770e+07 	 7.873565e+16
1.25998567e+01 	 2.038024e-03 	 7.473473e+07 	 7.868099e+16
1.25999870e+01 	 2.037836e-03 	 7.473343e+07 	 7.867552e+16
1.26000000e+01 	 2.037818e-03 	 7.473330e+07 	 7.867498e+16
1.27333333e+01 	 1.883435e-03 	 7.344096e+07 	 7.337229e+16
1.28666667e+01 	 1.770625e-03 	 7.220410e+07 	 6.855283e+16
1.30666667e+01 	 1.629930e-03 	 7.042612e+07 	 6.204583e+16
1.32000000e+01 	 1.547065e-03 	 6.928639e+07 	 5.812584e+16
1.33333333e+01 	 1.469801e-03 	 6.817997e+07 	 5.450100e+16
1.35333333e+01 	 1.363146e-03 	 6.657960e+07 	 4.956120e+16
1.36666667e+01 	 1.297945e-03 	 6.555044e+07 	 4.656714e+16
1.38666667e+01 	 1.206323e-03 	 6.405901e+07 	 4.247151e+16
1.40000000e+01 	 1.149939e-03 	 6.309865e+07 	 3.998130e+16
1.42000000e+01 	 1.071556e-03 	 6.170621e+07 	 3.656722e+16
1.43333333e+01 	 1.022977e-03 	 6.080849e+07 	 3.448524e+16
1.44666667e+01 	 9.775924e-04 	 5.993434e+07 	 3.254462e+16
1.46000000e+01 	 9.345572e-04 	 5.908255e+07 	 3.073358e+16
1.48000000e+01 	 8.739178e-04 	 5.784479e+07 	 2.823795e+16
1.50000000e+01 	 8.182338e-04 	 5.665317e+07 	 2.598201e+16
1.51333333e+01 	 7.837370e-04 	 5.588322e+07 	 2.459810e+16
1.52666667e+01 	 7.505057e-04 	 5.513137e+07 	 2.330080e+16
1.54666667e+01 	 7.044628e-04 	 5.403783e+07 	 2.150637e+16
1.56666667e+01 	 6.619545e-04 	 5.298278e+07 	 1.987532e+16
1.58666667e+01 	 6.226145e-04 	 5.196421e+07 	 1.839046e+16
1.60666667e+01 	 5.861519e-04 	 5.098030e+07 	 1.703667e+16
1.62666667e+01 	 5.523001e-04 	 5.002937e+07 	 1.580065e+16
1.63666667e+01 	 5.364037e-04 	 4.956589e+07 	 1.522323e+16
1.65000000e+01 	 5.160986e-04 	 4.895969e+07 	 1.449204e+16
1.67000000e+01 	 4.871719e-04 	 4.807466e+07 	 1.347224e+16
1.69000000e+01 	 4.602586e-04 	 4.721799e+07 	 1.253731e+16
1.71000000e+01 	 4.352281e-04 	 4.638834e+07 	 1.167911e+16
1.72333333e+01 	 4.195996e-04 	 4.584976e+07 	 1.114609e+16
1.74333333e+01 	 3.970893e-04 	 4.506195e+07 	 1.039954e+16
1.75666667e+01 	 3.830597e-04 	 4.455033e+07 	 9.935230e+15
1.77666667e+01 	 3.631481e-04 	 4.380207e+07 	 9.284372e+15
1.79666667e+01 	 3.444827e-04 	 4.307589e+07 	 8.683824e+15
1.81666667e+01 	 3.269032e-04 	 4.237073e+07 	 8.129011e+15
1.83666667e+01 	 3.105318e-04 	 4.168617e+07 	 7.616255e+15
1.85000000e+01 	 3.001685e-04 	 4.124068e+07 	 7.295863e+15
1.87000000e+01 	 2.853974e-04 	 4.058817e+07 	 6.844967e+15
1.88000000e+01 	 2.784772e-04 	 4.026879e+07 	 6.632046e+15
1.89000000e+01 	 2.717292e-04 	 3.995375e+07 	 6.426932e+15
1.90000000e+01 	 2.651703e-04 	 3.964303e+07 	 6.229318e+15
1.91333333e+01 	 2.566534e-04 	 3.923522e+07 	 5.976920e+15
1.93333333e+01 	 2.444636e-04 	 3.863727e+07 	 5.620810e+15
1.95333333e+01 	 2.330031e-04 	 3.805541e+07 	 5.289793e+15
1.97333333e+01 	 2.222281e-04 	 3.748902e+07 	 4.981834e+15
1.99333333e+01 	 2.120886e-04 	 3.693747e+07 	 4.695061e+15
2.01333333e+01 	 2.025296e-04 	 3.640012e+07 	 4.427758e+15
2.02666667e+01 	 1.964939e-04 	 3.604961e+07 	 4.259658e+15
2.04666667e+01 	 1.876947e-04 	 3.553445e+07 	 4.021343e+15
2.06000000e+01 	 1.821308e-04 	 3.519829e+07 	 3.871317e+15
2.08000000e+01 	 1.742264e-04 	 3.470468e+07 	 3.658682e+15
2.10000000e+01 	 1.666813e-04 	 3.422289e+07 	 3.459703e+15
2.11333333e+01 	 1.618404e-04 	 3.390811e+07 	 3.334162e+15
2.13333333e+01 	 1.549805e-04 	 3.344572e+07 	 3.155981e+15
2.15333333e+01 	 1.484922e-04 	 3.299438e+07 	 2.989042e+15
2.17333333e+01 	 1.423445e-04 	 3.255365e+07 	 2.832505e+15
2.19333333e+01 	 1.365023e-04 	 3.212311e+07 	 2.685604e+15
2.21333333e+01 	 1.309887e-04 	 3.170265e+07 	 2.547734e+15
2.23333333e+01 	 1.256729e-04 	 3.129144e+07 	 2.418099e+15
2.25333333e+01 	 1.206430e-04 	 3.088960e+07 	 2.296258e+15
2.27333333e+01 	 1.158672e-04 	 3.049675e+07 	 2.181654e+15
2.29333333e+01 	 1.113247e-04 	 3.011259e+07 	 2.073784e+15
2.31333333e+01 	 1.070484e-04 	 2.973705e+07 	 1.972254e+15
2.33333333e+01 	 1.029096e-04 	 2.936930e+07 	 1.876488e+15
2.35333333e+01 	 9.897906e-05 	 2.900953e+07 	 1.786217e+15
2.37333333e+01 	 9.524348e-05 	 2.865748e+07 	 1.701072e+15
2.39333333e+01 	 9.168869e-05 	 2.831285e+07 	 1.620710e+15
2.41333333e+01 	 8.829920e-05 	 2.797538e+07 	 1.544808e+15
2.43333333e+01 	 8.505630e-05 	 2.764479e+07 	 1.473072e+15
2.45333333e+01 	 8.197325e-05 	 2.732109e+07 	 1.405280e+15
2.47333333e+01 	 7.899160e-05 	 2.700367e+07 	 1.341101e+15
2.49333333e+01 	 7.614806e-05 	 2.669267e+07 	 1.280380e+15
2.51333333e+01 	 7.343655e-05 	 2.638793e+07 	 1.222902e+15
2.53333333e+01 	 7.084987e-05 	 2.608923e+07 	 1.168465e+15
2.55333333e+01 	 6.837975e-05 	 2.579639e+07 	 1.116879e+15
2.57333333e+01 	 6.601638e-05 	 2.550919e+07 	 1.067965e+15
2.59333333e+01 	 6.374710e-05 	 2.522743e+07 	 1.021557e+15
2.61333333e+01 	 6.159351e-05 	 2.495121e+07 	 9.775445e+14
2.63333333e+01 	 5.949593e-05 	 2.467990e+07 	 9.357155e+14
2.65333333e+01 	 5.748925e-05 	 2.441372e+07 	 8.959954e+14
2.67333333e+01 	 5.557032e-05 	 2.415252e+07 	 8.582624e+14
2.69333333e+01 	 5.373494e-05 	 2.389617e+07 	 8.224007e+14
2.71333333e+01 	 5.197778e-05 	 2.364452e+07 	 7.883004e+14
2.73333333e+01 	 5.029190e-05 	 2.339739e+07 	 7.558571e+14
2.75333333e+01 	 4.866755e-05 	 2.315464e+07 	 7.249729e+14
2.77333333e+01 	 4.711474e-05 	 2.291628e+07 	 6.955789e+14
2.79333333e+01 	 4.562269e-05 	 2.268211e+07 	 6.675798e+14
2.81333333e+01 	 4.418197e-05 	 2.245197e+07 	 6.408952e+14
2.82666667e+01 	 4.324273e-05 	 2.230068e+07 	 6.237954e+14
2.84666667e+01 	 4.190119e-05 	 2.207721e+07 	 5.991647e+14
2.86666667e+01 	 4.060348e-05 	 2.185749e+07 	 5.756660e+14
2.88000000e+01 	 3.975605e-05 	 2.171301e+07 	 5.605949e+14
2.90000000e+01 	 3.854631e-05 	 2.149953e+07 	 5.388710e+14
2.91333333e+01 	 3.777307e-05 	 2.135928e+07 	 5.249471e+14
2.93333333e+01 	 3.660755e-05 	 2.115142e+07 	 5.048090e+14
2.95333333e+01 	 3.551315e-05 	 2.094727e+07 	 4.856006e+14
2.96666667e+01 	 3.481250e-05 	 2.081312e+07 	 4.732796e+14
2.98666667e+01 	 3.375981e-05 	 2.061426e+07 	 4.554496e+14
3.00666667e+01 	 3.276817e-05 	 2.041889e+07 	 4.384275e+14
3.02666667e+01 	 3.181116e-05 	 2.022665e+07 	 4.221482e+14
3.04666667e+01 	 3.087066e-05 	 2.003728e+07 	 4.065595e+14
3.06666667e+01 	 2.998300e-05 	 1.985115e+07 	 3.916617e+14
3.08666667e+01 	 2.912435e-05 	 1.966790e+07 	 3.773992e+14
3.10666667e+01 	 2.828383e-05 	 1.948739e+07 	 3.637336e+14
3.12666667e+01 	 2.748258e-05 	 1.930980e+07 	 3.506544e+14
3.14666667e+01 	 2.670444e-05 	 1.913489e+07 	 3.381211e+14
3.16666667e+01 	 2.595367e-05 	 1.896267e+07 	 3.261116e+14
3.18666667e+01 	 2.522883e-05 	 1.879307e+07 	 3.146007e+14
3.20666667e+01 	 2.452859e-05 	 1.862604e+07 	 3.035642e+14
3.22666667e+01 	 2.385177e-05 	 1.846151e+07 	 2.929796e+14
3.24666667e+01 	 2.319733e-05 	 1.829943e+07 	 2.828255e+14
3.26666667e+01 	 2.256971e-05 	 1.813983e+07 	 2.730871e+14
3.28666667e+01 	 2.196343e-05 	 1.798258e+07 	 2.637400e+14
3.30666667e+01 	 2.137569e-05 	 1.782759e+07 	 2.547645e+14
3.32666667e+01 	 2.080025e-05 	 1.767475e+07 	 2.461396e+14
3.34666667e+01 	 2.024941e-05 	 1.752421e+07 	 2.378601e+14
3.36666667e+01 	 1.971193e-05 	 1.737575e+07 	 2.299016e+14
3.38666667e+01 	 1.919552e-05 	 1.722947e+07 	 2.222570e+14
3.40666667e+01 	 1.869123e-05 	 1.708518e+07 	 2.149048e+14
3.42666667e+01 	 1.820887e-05 	 1.694302e+07 	 2.078410e+14
3.44666667e+01 	 1.774060e-05 	 1.680282e+07 	 2.010465e+14
3.46666667e+01 	 1.728291e-05 	 1.666449e+07 	 1.945074e+14
3.48666667e+01 	 1.684239e-05 	 1.652813e+07 	 1.882187e+14
3.50666667e+01 	 1.641218e-05 	 1.639358e+07 	 1.821639e+14
3.52666667e+01 	 1.599996e-05 	 1.626094e+07 	 1.763397e+14
3.54666667e+01 	 1.559962e-05 	 1.613008e+07 	 1.707315e+14
3.56666667e+01 	 1.520734e-05 	 1.600091e+07 	 1.653278e+14
3.58666667e+01 	 1.483077e-05 	 1.587354e+07 	 1.601262e+14
3.60666667e+01 	 1.446199e-05 	 1.574780e+07 	 1.551125e+14
3.62666667e+01 	 1.410726e-05 	 1.562378e+07 	 1.502837e+14
3.64666667e+01 	 1.376094e-05 	 1.550136e+07 	 1.456287e+14
3.66666667e+01 	 1.342464e-05 	 1.538055e+07 	 1.411417e+14
3.68666667e+01 	 1.309793e-05 	 1.526133e+07 	 1.368159e+14
3.70666667e+01 	 1.278019e-05 	 1.514366e+07 	 1.326449e+14
3.72666667e+01 	 1.247084e-05 	 1.502752e+07 	 1.286224e+14
3.74666667e+01 	 1.216930e-05 	 1.491291e+07 	 1.247430e+14
3.76666667e+01 	 1.187482e-05 	 1.479979e+07 	 1.210011e+14
3.78666667e+01 	 1.158668e-05 	 1.468817e+07 	 1.173917e+14
3.80666667e+01 	 1.130393e-05 	 1.457803e+07 	 1.139102e+14
3.82666667e+01 	 1.102539e-05 	 1.446938e+07 	 1.105520e+14
3.84666667e+01 	 1.074947e-05 	 1.436227e+07 	 1.073146e+14
3.86666667e+01 	 1.047472e-05 	 1.425670e+07 	 1.041940e+14
3.88666667e+01 	 1.019895e-05 	 1.415273e+07 	 1.011876e+14
3.90666667e+01 	 9.918318e-06 	 1.405044e+07 	 9.829378e+13
3.92666667e+01 	 9.630214e-06 	 1.394995e+07 	 9.551159e+13
3.94666667e+01 	 9.331552e-06 	 1.385145e+07 	 9.284242e+13
3.96666667e+01 	 9.013335e-06 	 1.375509e+07 	 9.028560e+13
3.98666667e+01 	 8.674677e-06 	 1.366125e+07 	 8.784669e+13
4.00000000e+01 	 8.433786e-06 	 1.360023e+07 	 8.628761e+13
