r (km)        	 rho (g/cm3) 	 T (K)       	 P (dyne/cm2) 		 Linf = 3.519717e+38
1.20000716e+01 	 1.191936e+05 	 1.271562e+09 	 1.604931e+22
1.20026162e+01 	 8.527296e+04 	 1.168615e+09 	 1.091216e+22
1.20076136e+01 	 4.168130e+04 	 9.765655e+08 	 4.824506e+21
1.20123445e+01 	 1.955740e+04 	 8.089420e+08 	 2.062369e+21
1.20159109e+01 	 1.045197e+04 	 6.930455e+08 	 1.031349e+21
1.20194774e+01 	 5.307422e+03 	 5.872135e+08 	 4.931988e+20
1.20227096e+01 	 2.746459e+03 	 5.007560e+08 	 2.438755e+20
1.20259418e+01 	 1.364840e+03 	 4.238699e+08 	 1.172832e+20
1.20285695e+01 	 7.529333e+02 	 3.686794e+08 	 6.380712e+19
1.20313892e+01 	 3.896414e+02 	 3.168464e+08 	 3.307233e+19
1.20337343e+01 	 2.229592e+02 	 2.794975e+08 	 1.925414e+19
1.20360794e+01 	 1.272014e+02 	 2.471929e+08 	 1.136581e+19
1.20384245e+01 	 7.284898e+01 	 2.196491e+08 	 6.862279e+18
1.20407696e+01 	 4.217865e+01 	 1.964890e+08 	 4.272958e+18
1.20436753e+01 	 2.197479e+01 	 1.731946e+08 	 2.505152e+18
1.20465810e+01 	 1.188581e+01 	 1.549984e+08 	 1.569813e+18
1.20494867e+01 	 6.723012e+00 	 1.409478e+08 	 1.054071e+18
1.20523924e+01 	 3.989854e+00 	 1.301625e+08 	 7.560894e+17
1.20552982e+01 	 2.484314e+00 	 1.218857e+08 	 5.753708e+17
1.20592403e+01 	 1.404351e+00 	 1.135916e+08 	 4.297593e+17
1.20631824e+01 	 8.552028e-01 	 1.076648e+08 	 3.445708e+17
1.20671246e+01 	 5.550202e-01 	 1.033359e+08 	 2.911191e+17
1.20723910e+01 	 3.380784e-01 	 9.919240e+07 	 2.462207e+17
1.20776574e+01 	 2.220094e-01 	 9.626147e+07 	 2.178650e+17
1.20829238e+01 	 1.546921e-01 	 9.410694e+07 	 1.986973e+17
1.20881902e+01 	 1.130040e-01 	 9.246857e+07 	 1.850239e+17
1.20971439e+01 	 7.205929e-02 	 9.044242e+07 	 1.691435e+17
1.21060976e+01 	 4.977423e-02 	 8.901273e+07 	 1.585949e+17
1.21194291e+01 	 3.189745e-02 	 8.751829e+07 	 1.481259e+17
1.21327606e+01 	 2.238234e-02 	 8.646527e+07 	 1.410796e+17
1.21497769e+01 	 1.561697e-02 	 8.548493e+07 	 1.347575e+17
1.21667931e+01 	 1.173416e-02 	 8.474736e+07 	 1.301482e+17
1.21838094e+01 	 9.304965e-03 	 8.415974e+07 	 1.265645e+17
1.22120289e+01 	 6.896358e-03 	 8.338839e+07 	 1.219768e+17
1.22267150e+01 	 6.088903e-03 	 8.305316e+07 	 1.200234e+17
1.22685732e+01 	 4.634506e-03 	 8.224983e+07 	 1.154401e+17
1.22998423e+01 	 3.999566e-03 	 8.174503e+07 	 1.126293e+17
1.23683885e+01 	 3.212059e-03 	 8.079652e+07 	 1.074889e+17
1.23750000e+01 	 3.160857e-03 	 8.071249e+07 	 1.070422e+17
1.25416667e+01 	 2.478665e-03 	 7.882698e+07 	 9.738264e+16
1.27083333e+01 	 2.212494e-03 	 7.715475e+07 	 8.937784e+16
1.28750000e+01 	 2.047068e-03 	 7.558165e+07 	 8.230835e+16
1.30416667e+01 	 1.913922e-03 	 7.407650e+07 	 7.594512e+16
1.32916667e+01 	 1.740493e-03 	 7.192495e+07 	 6.749880e+16
1.34583333e+01 	 1.637719e-03 	 7.055569e+07 	 6.250371e+16
1.36250000e+01 	 1.542509e-03 	 6.923446e+07 	 5.795178e+16
1.37916667e+01 	 1.454386e-03 	 6.795895e+07 	 5.379774e+16
1.40416667e+01 	 1.333860e-03 	 6.612627e+07 	 4.822510e+16
1.42083333e+01 	 1.260563e-03 	 6.495517e+07 	 4.489850e+16
1.43750000e+01 	 1.192542e-03 	 6.382250e+07 	 4.184773e+16
1.46250000e+01 	 1.098662e-03 	 6.219096e+07 	 3.772991e+16
1.47916667e+01 	 1.041353e-03 	 6.114610e+07 	 3.525751e+16
1.49583333e+01 	 9.880551e-04 	 6.013389e+07 	 3.298022e+16
1.52083333e+01 	 9.139954e-04 	 5.867273e+07 	 2.988968e+16
1.53750000e+01 	 8.687597e-04 	 5.773522e+07 	 2.802459e+16
1.55416667e+01 	 8.261422e-04 	 5.682518e+07 	 2.629900e+16
1.57916667e+01 	 7.669996e-04 	 5.550933e+07 	 2.394638e+16
1.59583333e+01 	 7.307456e-04 	 5.466359e+07 	 2.251999e+16
1.62083333e+01 	 6.801695e-04 	 5.343910e+07 	 2.056895e+16
1.63750000e+01 	 6.487726e-04 	 5.265095e+07 	 1.938208e+16
1.65000000e+01 	 6.269636e-04 	 5.207432e+07 	 1.854683e+16
1.66666667e+01 	 5.989524e-04 	 5.132322e+07 	 1.749971e+16
1.68333333e+01 	 5.724798e-04 	 5.059214e+07 	 1.652370e+16
1.70833333e+01 	 5.353069e-04 	 4.953118e+07 	 1.518063e+16
1.73333333e+01 	 5.012364e-04 	 4.851122e+07 	 1.396830e+16
1.75000000e+01 	 4.801481e-04 	 4.785290e+07 	 1.322537e+16
1.76666667e+01 	 4.599939e-04 	 4.721083e+07 	 1.252971e+16
1.79166667e+01 	 4.319050e-04 	 4.627770e+07 	 1.156809e+16
1.80833333e+01 	 4.144721e-04 	 4.567466e+07 	 1.097680e+16
1.82500000e+01 	 3.978853e-04 	 4.508610e+07 	 1.042185e+16
1.85000000e+01 	 3.744401e-04 	 4.422917e+07 	 9.651823e+15
1.86666667e+01 	 3.598181e-04 	 4.367469e+07 	 9.176847e+15
1.89166667e+01 	 3.391093e-04 	 4.286675e+07 	 8.516404e+15
1.91666667e+01 	 3.199285e-04 	 4.208655e+07 	 7.913108e+15
1.92916667e+01 	 3.110394e-04 	 4.170650e+07 	 7.631126e+15
1.94166667e+01 	 3.024307e-04 	 4.133273e+07 	 7.361220e+15
1.95833333e+01 	 2.913190e-04 	 4.084382e+07 	 7.019060e+15
1.98333333e+01 	 2.755091e-04 	 4.013025e+07 	 6.541252e+15
2.00833333e+01 	 2.607934e-04 	 3.943973e+07 	 6.102519e+15
2.03333333e+01 	 2.470940e-04 	 3.877119e+07 	 5.699144e+15
2.05833333e+01 	 2.343178e-04 	 3.812353e+07 	 5.327771e+15
2.07500000e+01 	 2.262844e-04 	 3.770291e+07 	 5.096502e+15
2.09166667e+01 	 2.185581e-04 	 3.729078e+07 	 4.877293e+15
2.10833333e+01 	 2.112091e-04 	 3.688709e+07 	 4.669498e+15
2.12500000e+01 	 2.041283e-04 	 3.649138e+07 	 4.472328e+15
2.14166667e+01 	 1.973936e-04 	 3.610362e+07 	 4.285245e+15
2.15833333e+01 	 1.908653e-04 	 3.572329e+07 	 4.107506e+15
2.18333333e+01 	 1.816543e-04 	 3.516687e+07 	 3.857512e+15
2.20833333e+01 	 1.729569e-04 	 3.462626e+07 	 3.625724e+15
2.23333333e+01 	 1.648053e-04 	 3.410104e+07 	 3.410696e+15
2.25833333e+01 	 1.571798e-04 	 3.359067e+07 	 3.211047e+15
2.28333333e+01 	 1.499545e-04 	 3.309420e+07 	 3.025378e+15
2.30833333e+01 	 1.431840e-04 	 3.261141e+07 	 2.852663e+15
2.32500000e+01 	 1.389263e-04 	 3.229696e+07 	 2.744216e+15
2.35000000e+01 	 1.327053e-04 	 3.183521e+07 	 2.590613e+15
2.37500000e+01 	 1.269217e-04 	 3.138600e+07 	 2.447459e+15
2.40000000e+01 	 1.213970e-04 	 3.094818e+07 	 2.313726e+15
2.41666667e+01 	 1.178714e-04 	 3.066257e+07 	 2.229492e+15
2.43333333e+01 	 1.144862e-04 	 3.038192e+07 	 2.148981e+15
2.45833333e+01 	 1.096735e-04 	 2.997000e+07 	 2.034785e+15
2.48333333e+01 	 1.051260e-04 	 2.956841e+07 	 1.927894e+15
2.50833333e+01 	 1.008128e-04 	 2.917667e+07 	 1.827739e+15
2.53333333e+01 	 9.673241e-05 	 2.879461e+07 	 1.733866e+15
2.55833333e+01 	 9.281581e-05 	 2.842153e+07 	 1.645738e+15
2.58333333e+01 	 8.913036e-05 	 2.805759e+07 	 1.563047e+15
2.60833333e+01 	 8.563225e-05 	 2.770224e+07 	 1.485355e+15
2.63333333e+01 	 8.230260e-05 	 2.735515e+07 	 1.412300e+15
2.65000000e+01 	 8.015673e-05 	 2.712815e+07 	 1.366002e+15
2.67500000e+01 	 7.710052e-05 	 2.679436e+07 	 1.300002e+15
2.70000000e+01 	 7.418641e-05 	 2.646810e+07 	 1.237833e+15
2.71666667e+01 	 7.230213e-05 	 2.625459e+07 	 1.198371e+15
2.74166667e+01 	 6.962680e-05 	 2.594051e+07 	 1.142049e+15
2.76666667e+01 	 6.706900e-05 	 2.563331e+07 	 1.088902e+15
2.78333333e+01 	 6.541177e-05 	 2.543215e+07 	 1.055121e+15
2.80833333e+01 	 6.305103e-05 	 2.513604e+07 	 1.006834e+15
2.83333333e+01 	 6.077901e-05 	 2.484619e+07 	 9.611906e+14
2.85833333e+01 	 5.861320e-05 	 2.456254e+07 	 9.180434e+14
2.88333333e+01 	 5.654587e-05 	 2.428488e+07 	 8.772310e+14
2.90833333e+01 	 5.458355e-05 	 2.401315e+07 	 8.386220e+14
2.93333333e+01 	 5.270865e-05 	 2.374703e+07 	 8.020606e+14
2.95833333e+01 	 5.091180e-05 	 2.348633e+07 	 7.674156e+14
2.97500000e+01 	 4.974392e-05 	 2.331538e+07 	 7.453152e+14
3.00000000e+01 	 4.808255e-05 	 2.306349e+07 	 7.136252e+14
3.01666667e+01 	 4.702809e-05 	 2.289848e+07 	 6.934198e+14
3.04166667e+01 	 4.544224e-05 	 2.265455e+07 	 6.643420e+14
3.05833333e+01 	 4.445604e-05 	 2.249490e+07 	 6.458111e+14
3.08333333e+01 	 4.300063e-05 	 2.225908e+07 	 6.191535e+14
3.10833333e+01 	 4.160674e-05 	 2.202785e+07 	 5.938246e+14
3.13333333e+01 	 4.027181e-05 	 2.180109e+07 	 5.697475e+14
3.15833333e+01 	 3.899213e-05 	 2.157866e+07 	 5.468490e+14
3.18333333e+01 	 3.776473e-05 	 2.136044e+07 	 5.250614e+14
3.20833333e+01 	 3.657463e-05 	 2.114618e+07 	 5.043093e+14
3.23333333e+01 	 3.544846e-05 	 2.093608e+07 	 4.845632e+14
3.25833333e+01 	 3.436596e-05 	 2.072982e+07 	 4.657483e+14
3.28333333e+01 	 3.331090e-05 	 2.052718e+07 	 4.478018e+14
3.30833333e+01 	 3.230955e-05 	 2.032833e+07 	 4.307011e+14
3.33333333e+01 	 3.133806e-05 	 2.013297e+07 	 4.143810e+14
3.35833333e+01 	 3.040879e-05 	 1.994114e+07 	 3.988128e+14
3.38333333e+01 	 2.951462e-05 	 1.975271e+07 	 3.839506e+14
3.40833333e+01 	 2.864718e-05 	 1.956749e+07 	 3.697507e+14
3.43333333e+01 	 2.782103e-05 	 1.938560e+07 	 3.561931e+14
3.45833333e+01 	 2.702498e-05 	 1.920683e+07 	 3.432348e+14
3.48333333e+01 	 2.624867e-05 	 1.903100e+07 	 3.308378e+14
3.50833333e+01 	 2.550912e-05 	 1.885826e+07 	 3.189887e+14
3.53333333e+01 	 2.478980e-05 	 1.868835e+07 	 3.076465e+14
3.55833333e+01 	 2.410029e-05 	 1.852133e+07 	 2.967955e+14
3.58333333e+01 	 2.343047e-05 	 1.835701e+07 	 2.864023e+14
3.60833333e+01 	 2.279052e-05 	 1.819549e+07 	 2.764544e+14
3.63333333e+01 	 2.217271e-05 	 1.803660e+07 	 2.669234e+14
3.65833333e+01 	 2.156896e-05 	 1.788017e+07 	 2.577830e+14
3.68333333e+01 	 2.098582e-05 	 1.772625e+07 	 2.490209e+14
3.70833333e+01 	 2.043261e-05 	 1.757495e+07 	 2.406273e+14
3.73333333e+01 	 1.989745e-05 	 1.742603e+07 	 2.325743e+14
3.75833333e+01 	 1.937699e-05 	 1.727938e+07 	 2.248437e+14
3.78333333e+01 	 1.886964e-05 	 1.713496e+07 	 2.174204e+14
3.80833333e+01 	 1.837983e-05 	 1.699279e+07 	 2.102939e+14
3.83333333e+01 	 1.790659e-05 	 1.685282e+07 	 2.034501e+14
3.85833333e+01 	 1.744905e-05 	 1.671499e+07 	 1.968756e+14
3.88333333e+01 	 1.700650e-05 	 1.657925e+07 	 1.905580e+14
3.90833333e+01 	 1.657823e-05 	 1.644556e+07 	 1.844854e+14
3.93333333e+01 	 1.616389e-05 	 1.631387e+07 	 1.786469e+14
3.95833333e+01 	 1.576274e-05 	 1.618414e+07 	 1.730318e+14
3.98333333e+01 	 1.537424e-05 	 1.605632e+07 	 1.676300e+14
4.00833333e+01 	 1.499770e-05 	 1.593037e+07 	 1.624319e+14
4.03333333e+01 	 1.463284e-05 	 1.580626e+07 	 1.574286e+14
4.05833333e+01 	 1.427917e-05 	 1.568393e+07 	 1.526115e+14
4.08333333e+01 	 1.393622e-05 	 1.556337e+07 	 1.479726e+14
4.10833333e+01 	 1.360492e-05 	 1.544454e+07 	 1.435051e+14
4.13333333e+01 	 1.328245e-05 	 1.532737e+07 	 1.391997e+14
4.15833333e+01 	 1.296958e-05 	 1.521185e+07 	 1.350504e+14
4.18333333e+01 	 1.266590e-05 	 1.509795e+07 	 1.310505e+14
4.20833333e+01 	 1.237291e-05 	 1.498567e+07 	 1.271955e+14
4.23333333e+01 	 1.208887e-05 	 1.487495e+07 	 1.234779e+14
4.25833333e+01 	 1.181342e-05 	 1.476575e+07 	 1.198918e+14
4.28333333e+01 	 1.154042e-05 	 1.465791e+07 	 1.164274e+14
4.30833333e+01 	 1.128005e-05 	 1.455165e+07 	 1.130879e+14
4.32500000e+01 	 1.110846e-05 	 1.448156e+07 	 1.109247e+14
4.34166667e+01 	 1.094814e-05 	 1.441229e+07 	 1.088175e+14
4.35833333e+01 	 1.078766e-05 	 1.434354e+07 	 1.067560e+14
4.38333333e+01 	 1.054579e-05 	 1.424139e+07 	 1.037473e+14
4.40833333e+01 	 1.031122e-05 	 1.414061e+07 	 1.008416e+14
4.43333333e+01 	 1.008359e-05 	 1.404117e+07 	 9.803481e+13
4.45833333e+01 	 9.862507e-06 	 1.394305e+07 	 9.532294e+13
4.48333333e+01 	 9.647612e-06 	 1.384621e+07 	 9.270221e+13
4.50833333e+01 	 9.438547e-06 	 1.375063e+07 	 9.016899e+13
4.53333333e+01 	 9.234975e-06 	 1.365629e+07 	 8.771981e+13
4.55833333e+01 	 9.036590e-06 	 1.356317e+07 	 8.535142e+13
4.58333333e+01 	 8.843125e-06 	 1.347123e+07 	 8.306071e+13
4.60833333e+01 	 8.654363e-06 	 1.338047e+07 	 8.084484e+13
4.63333333e+01 	 8.470120e-06 	 1.329088e+07 	 7.870128e+13
4.65833333e+01 	 8.289653e-06 	 1.320243e+07 	 7.662709e+13
4.68333333e+01 	 8.113352e-06 	 1.311515e+07 	 7.462060e+13
4.70833333e+01 	 7.940277e-06 	 1.302900e+07 	 7.267922e+13
4.73333333e+01 	 7.769760e-06 	 1.294394e+07 	 7.079979e+13
4.75833333e+01 	 7.601092e-06 	 1.286009e+07 	 6.898304e+13
4.78333333e+01 	 7.433287e-06 	 1.277741e+07 	 6.722609e+13
4.80833333e+01 	 7.265604e-06 	 1.269592e+07 	 6.552727e+13
4.83333333e+01 	 7.097280e-06 	 1.261561e+07 	 6.388505e+13
4.85833333e+01 	 6.927470e-06 	 1.253653e+07 	 6.229814e+13
4.88333333e+01 	 6.755072e-06 	 1.245872e+07 	 6.076573e+13
4.90833333e+01 	 6.578259e-06 	 1.238228e+07 	 5.928801e+13
4.93333333e+01 	 6.392462e-06 	 1.230738e+07 	 5.786640e+13
4.95833333e+01 	 6.196958e-06 	 1.223410e+07 	 5.650043e+13
4.98333333e+01 	 5.988614e-06 	 1.216262e+07 	 5.519149e+13
5.00000000e+01 	 5.839552e-06 	 1.211609e+07 	 5.435175e+13
