r (cm)        	 rho (g/cm3) 	 T (K)       		 Linf = 5.026993e+38
1.30002704e+06 	 1.421068e+05 	 1.381225e+09 	
1.30010055e+06 	 1.252525e+05 	 1.338628e+09 	
1.30018087e+06 	 1.087995e+05 	 1.292729e+09 	
1.30025817e+06 	 9.473462e+04 	 1.249215e+09 	
1.30033547e+06 	 8.224776e+04 	 1.206366e+09 	
1.30041277e+06 	 7.119405e+04 	 1.164205e+09 	
1.30049007e+06 	 6.143832e+04 	 1.122751e+09 	
1.30055424e+06 	 5.423576e+04 	 1.088894e+09 	
1.30061840e+06 	 4.777342e+04 	 1.055552e+09 	
1.30068257e+06 	 4.198821e+04 	 1.022737e+09 	
1.30074673e+06 	 3.682103e+04 	 9.904638e+08 	
1.30081090e+06 	 3.221666e+04 	 9.587437e+08 	
1.30087368e+06 	 2.820680e+04 	 9.282558e+08 	
1.30093646e+06 	 2.464153e+04 	 8.983226e+08 	
1.30099924e+06 	 2.147911e+04 	 8.689563e+08 	
1.30106203e+06 	 1.868080e+04 	 8.401691e+08 	
1.30111431e+06 	 1.660218e+04 	 8.166439e+08 	
1.30116660e+06 	 1.473199e+04 	 7.935356e+08 	
1.30121889e+06 	 1.305228e+04 	 7.708510e+08 	
1.30127118e+06 	 1.154631e+04 	 7.485969e+08 	
1.30132347e+06 	 1.019851e+04 	 7.267796e+08 	
1.30137576e+06 	 8.994422e+03 	 7.054055e+08 	
1.30142881e+06 	 7.906046e+03 	 6.841817e+08 	
1.30148185e+06 	 6.938874e+03 	 6.634262e+08 	
1.30153489e+06 	 6.081006e+03 	 6.431448e+08 	
1.30157910e+06 	 5.441707e+03 	 6.266101e+08 	
1.30162330e+06 	 4.864847e+03 	 6.104113e+08 	
1.30166750e+06 	 4.344994e+03 	 5.945511e+08 	
1.30171170e+06 	 3.877107e+03 	 5.790319e+08 	
1.30175591e+06 	 3.456523e+03 	 5.638560e+08 	
1.30180011e+06 	 3.078929e+03 	 5.490253e+08 	
1.30184431e+06 	 2.740345e+03 	 5.345416e+08 	
1.30188851e+06 	 2.437109e+03 	 5.204063e+08 	
1.30193524e+06 	 2.151266e+03 	 5.058441e+08 	
1.30197415e+06 	 1.937843e+03 	 4.940149e+08 	
1.30201307e+06 	 1.744741e+03 	 4.824574e+08 	
1.30205198e+06 	 1.570174e+03 	 4.711719e+08 	
1.30209090e+06 	 1.412492e+03 	 4.601580e+08 	
1.30212981e+06 	 1.270176e+03 	 4.494155e+08 	
1.30216873e+06 	 1.141827e+03 	 4.389438e+08 	
1.30220764e+06 	 1.026159e+03 	 4.287421e+08 	
1.30224656e+06 	 9.219931e+02 	 4.188092e+08 	
1.30228547e+06 	 8.282474e+02 	 4.091438e+08 	
1.30232439e+06 	 7.439328e+02 	 3.997445e+08 	
1.30236330e+06 	 6.681451e+02 	 3.906093e+08 	
1.30240222e+06 	 6.000594e+02 	 3.817362e+08 	
1.30244113e+06 	 5.389235e+02 	 3.731229e+08 	
1.30247930e+06 	 4.850568e+02 	 3.649256e+08 	
1.30251746e+06 	 4.366290e+02 	 3.569731e+08 	
1.30255562e+06 	 3.931060e+02 	 3.492625e+08 	
1.30259379e+06 	 3.540029e+02 	 3.417908e+08 	
1.30263195e+06 	 3.188797e+02 	 3.345546e+08 	
1.30267012e+06 	 2.873378e+02 	 3.275504e+08 	
1.30270828e+06 	 2.590163e+02 	 3.207746e+08 	
1.30274644e+06 	 2.335891e+02 	 3.142233e+08 	
1.30278461e+06 	 2.107614e+02 	 3.078925e+08 	
1.30282277e+06 	 1.902675e+02 	 3.017780e+08 	
1.30286094e+06 	 1.718678e+02 	 2.958753e+08 	
1.30289910e+06 	 1.553465e+02 	 2.901800e+08 	
1.30293726e+06 	 1.405095e+02 	 2.846876e+08 	
1.30297543e+06 	 1.271823e+02 	 2.793931e+08 	
1.30301359e+06 	 1.152080e+02 	 2.742919e+08 	
1.30305176e+06 	 1.044461e+02 	 2.693790e+08 	
1.30308992e+06 	 9.477019e+01 	 2.646494e+08 	
1.30312808e+06 	 8.606717e+01 	 2.600980e+08 	
1.30316625e+06 	 7.823562e+01 	 2.557198e+08 	
1.30320441e+06 	 7.118473e+01 	 2.515097e+08 	
1.30324258e+06 	 6.483321e+01 	 2.474626e+08 	
1.30329037e+06 	 5.775469e+01 	 2.426161e+08 	
1.30333817e+06 	 5.153340e+01 	 2.380072e+08 	
1.30338596e+06 	 4.605964e+01 	 2.336258e+08 	
1.30343376e+06 	 4.123810e+01 	 2.294623e+08 	
1.30348155e+06 	 3.698591e+01 	 2.255069e+08 	
1.30352935e+06 	 3.323109e+01 	 2.217501e+08 	
1.30357714e+06 	 2.991106e+01 	 2.181827e+08 	
1.30362494e+06 	 2.697145e+01 	 2.147956e+08 	
1.30367273e+06 	 2.436497e+01 	 2.115800e+08 	
1.30372053e+06 	 2.205049e+01 	 2.085273e+08 	
1.30376832e+06 	 1.999224e+01 	 2.056294e+08 	
1.30381612e+06 	 1.815906e+01 	 2.028783e+08 	
1.30386391e+06 	 1.652383e+01 	 2.002664e+08 	
1.30391171e+06 	 1.506287e+01 	 1.977862e+08 	
1.30395950e+06 	 1.375556e+01 	 1.954309e+08 	
1.30400730e+06 	 1.258387e+01 	 1.931936e+08 	
1.30405509e+06 	 1.153205e+01 	 1.910679e+08 	
1.30410289e+06 	 1.058633e+01 	 1.890478e+08 	
1.30415068e+06 	 9.734647e+00 	 1.871275e+08 	
1.30419848e+06 	 8.966418e+00 	 1.853014e+08 	
1.30425398e+06 	 8.166791e+00 	 1.832922e+08 	
1.30430949e+06 	 7.454592e+00 	 1.813953e+08 	
1.30436499e+06 	 6.818918e+00 	 1.796035e+08 	
1.30442050e+06 	 6.250358e+00 	 1.779101e+08 	
1.30447600e+06 	 5.740771e+00 	 1.763087e+08 	
1.30453151e+06 	 5.283109e+00 	 1.747934e+08 	
1.30458701e+06 	 4.871253e+00 	 1.733586e+08 	
1.30464252e+06 	 4.499884e+00 	 1.719992e+08 	
1.30469802e+06 	 4.164371e+00 	 1.707104e+08 	
1.30477220e+06 	 3.764999e+00 	 1.690904e+08 	
1.30484639e+06 	 3.414257e+00 	 1.675787e+08 	
1.30492057e+06 	 3.105223e+00 	 1.661663e+08 	
1.30499475e+06 	 2.832081e+00 	 1.648451e+08 	
1.30506893e+06 	 2.589922e+00 	 1.636076e+08 	
1.30514312e+06 	 2.374595e+00 	 1.624471e+08 	
1.30521730e+06 	 2.182578e+00 	 1.613575e+08 	
1.30529148e+06 	 2.010870e+00 	 1.603332e+08 	
1.30538405e+06 	 1.821228e+00 	 1.591390e+08 	
1.30547663e+06 	 1.655060e+00 	 1.580298e+08 	
1.30556920e+06 	 1.508898e+00 	 1.569976e+08 	
1.30566177e+06 	 1.379855e+00 	 1.560355e+08 	
1.30575434e+06 	 1.265523e+00 	 1.551371e+08 	
1.30584692e+06 	 1.163879e+00 	 1.542967e+08 	
1.30593949e+06 	 1.073220e+00 	 1.535094e+08 	
1.30606221e+06 	 9.675392e-01 	 1.525398e+08 	
1.30618494e+06 	 8.758781e-01 	 1.516461e+08 	
1.30630766e+06 	 7.959843e-01 	 1.508204e+08 	
1.30643039e+06 	 7.260220e-01 	 1.500555e+08 	
1.30655311e+06 	 6.644861e-01 	 1.493452e+08 	
1.30667584e+06 	 6.101356e-01 	 1.486841e+08 	
1.30683518e+06 	 5.486237e-01 	 1.478915e+08 	
1.30699452e+06 	 4.956729e-01 	 1.471648e+08 	
1.30715386e+06 	 4.498243e-01 	 1.464964e+08 	
1.30731320e+06 	 4.099075e-01 	 1.458795e+08 	
1.30747254e+06 	 3.749764e-01 	 1.453085e+08 	
1.30766743e+06 	 3.379190e-01 	 1.446653e+08 	
1.30786231e+06 	 3.060440e-01 	 1.440759e+08 	
1.30805719e+06 	 2.784555e-01 	 1.435335e+08 	
1.30825207e+06 	 2.544388e-01 	 1.430327e+08 	
1.30844695e+06 	 2.334184e-01 	 1.425687e+08 	
1.30873253e+06 	 2.070763e-01 	 1.419471e+08 	
1.30901810e+06 	 1.850317e-01 	 1.413853e+08 	
1.30930368e+06 	 1.664162e-01 	 1.408748e+08 	
1.30958925e+06 	 1.505662e-01 	 1.404082e+08 	
1.30993285e+06 	 1.344435e-01 	 1.398971e+08 	
1.31027645e+06 	 1.209033e-01 	 1.394329e+08 	
1.31062005e+06 	 1.094289e-01 	 1.390088e+08 	
1.31096365e+06 	 9.962524e-02 	 1.386193e+08 	
1.31146629e+06 	 8.767335e-02 	 1.381025e+08 	
1.31196893e+06 	 7.793765e-02 	 1.376384e+08 	
1.31247157e+06 	 6.990547e-02 	 1.372181e+08 	
1.31317077e+06 	 6.088121e-02 	 1.366934e+08 	
1.31386997e+06 	 5.373123e-02 	 1.362255e+08 	
1.31456918e+06 	 4.797085e-02 	 1.358034e+08 	
1.31537654e+06 	 4.261091e-02 	 1.353624e+08 	
1.31618390e+06 	 3.829192e-02 	 1.349620e+08 	
1.31699126e+06 	 3.476018e-02 	 1.345949e+08 	
1.31818920e+06 	 3.059656e-02 	 1.340994e+08 	
1.31938714e+06 	 2.737211e-02 	 1.336511e+08 	
1.32097815e+06 	 2.410239e-02 	 1.331118e+08 	
1.32256917e+06 	 2.163784e-02 	 1.326218e+08 	
1.32446905e+06 	 1.941438e-02 	 1.320856e+08 	
1.32636894e+06 	 1.773264e-02 	 1.315901e+08 	
1.32826882e+06 	 1.642972e-02 	 1.311258e+08 	
1.33123077e+06 	 1.491520e-02 	 1.304492e+08 	
1.33297419e+06 	 1.423196e-02 	 1.300718e+08 	
1.33679281e+06 	 1.309529e-02 	 1.292851e+08 	
1.33990111e+06 	 1.242101e-02 	 1.286756e+08 	
1.34524415e+06 	 1.158549e-02 	 1.276736e+08 	
1.34764806e+06 	 1.129857e-02 	 1.272371e+08 	
1.35448512e+06 	 1.066635e-02 	 1.260312e+08 	
1.35938818e+06 	 1.032052e-02 	 1.251916e+08 	
1.36975809e+06 	 9.745435e-03 	 1.234674e+08 	
1.37345574e+06 	 9.571172e-03 	 1.228666e+08 	
1.38805396e+06 	 8.965990e-03 	 1.205549e+08 	
1.39639062e+06 	 8.657590e-03 	 1.192739e+08 	
1.39963909e+06 	 8.542472e-03 	 1.187819e+08 	
1.39996394e+06 	 8.531098e-03 	 1.187329e+08 	
1.39999643e+06 	 8.529962e-03 	 1.187280e+08 	
1.39999968e+06 	 8.529848e-03 	 1.187275e+08 	
1.40000000e+06 	 8.529837e-03 	 1.187274e+08 	
1.42000000e+06 	 7.870934e-03 	 1.157844e+08 	
1.44666667e+06 	 7.095613e-03 	 1.120694e+08 	
1.46666667e+06 	 6.577743e-03 	 1.094278e+08 	
1.49333333e+06 	 5.960654e-03 	 1.060832e+08 	
1.51333333e+06 	 5.545805e-03 	 1.036988e+08 	
1.54000000e+06 	 5.048639e-03 	 1.006725e+08 	
1.56666667e+06 	 4.606839e-03 	 9.780812e+07 	
1.58666667e+06 	 4.307573e-03 	 9.575868e+07 	
1.61333333e+06 	 3.946251e-03 	 9.314871e+07 	
1.64000000e+06 	 3.622884e-03 	 9.066936e+07 	
1.66666667e+06 	 3.332627e-03 	 8.831118e+07 	
1.69333333e+06 	 3.071465e-03 	 8.606564e+07 	
1.72000000e+06 	 2.835921e-03 	 8.392497e+07 	
1.74666667e+06 	 2.622997e-03 	 8.188212e+07 	
1.77333333e+06 	 2.430110e-03 	 7.993064e+07 	
1.80000000e+06 	 2.255003e-03 	 7.806462e+07 	
1.82666667e+06 	 2.095686e-03 	 7.627866e+07 	
1.85333333e+06 	 1.950503e-03 	 7.456781e+07 	
1.88000000e+06 	 1.817911e-03 	 7.292748e+07 	
1.90666667e+06 	 1.696616e-03 	 7.135350e+07 	
1.93333333e+06 	 1.585473e-03 	 6.984197e+07 	
1.96000000e+06 	 1.483469e-03 	 6.838934e+07 	
1.98666667e+06 	 1.389707e-03 	 6.699227e+07 	
2.01333333e+06 	 1.303408e-03 	 6.564771e+07 	
2.04000000e+06 	 1.223855e-03 	 6.435281e+07 	
2.08000000e+06 	 1.115729e-03 	 6.249776e+07 	
2.10666667e+06 	 1.050394e-03 	 6.131577e+07 	
2.13333333e+06 	 9.898449e-04 	 6.017490e+07 	
2.16000000e+06 	 9.336681e-04 	 5.907308e+07 	
2.20000000e+06 	 8.568413e-04 	 5.748945e+07 	
2.22666667e+06 	 8.100643e-04 	 5.647713e+07 	
2.25333333e+06 	 7.664756e-04 	 5.549760e+07 	
2.29333333e+06 	 7.065839e-04 	 5.408655e+07 	
2.32000000e+06 	 6.699370e-04 	 5.318255e+07 	
2.34666667e+06 	 6.356923e-04 	 5.230640e+07 	
2.38666667e+06 	 5.884120e-04 	 5.104165e+07 	
2.41333333e+06 	 5.593420e-04 	 5.022977e+07 	
2.44000000e+06 	 5.321214e-04 	 4.944173e+07 	
2.48000000e+06 	 4.943257e-04 	 4.830201e+07 	
2.50666667e+06 	 4.710133e-04 	 4.756909e+07 	
2.54666667e+06 	 4.386471e-04 	 4.650794e+07 	
2.57333333e+06 	 4.186087e-04 	 4.582471e+07 	
2.61333333e+06 	 3.907130e-04 	 4.483436e+07 	
2.65333333e+06 	 3.651453e-04 	 4.388322e+07 	
2.68000000e+06 	 3.492762e-04 	 4.326980e+07 	
2.72000000e+06 	 3.270839e-04 	 4.237913e+07 	
2.74666667e+06 	 3.132743e-04 	 4.180411e+07 	
2.78666667e+06 	 2.939370e-04 	 4.096843e+07 	
2.82666667e+06 	 2.760949e-04 	 4.016339e+07 	
2.85333333e+06 	 2.649559e-04 	 3.964289e+07 	
2.89333333e+06 	 2.493093e-04 	 3.888535e+07 	
2.93333333e+06 	 2.348266e-04 	 3.815439e+07 	
2.96000000e+06 	 2.257570e-04 	 3.768115e+07 	
3.00000000e+06 	 2.129741e-04 	 3.699148e+07 	
3.04000000e+06 	 2.011062e-04 	 3.632501e+07 	
3.08000000e+06 	 1.900653e-04 	 3.568056e+07 	
3.12000000e+06 	 1.797816e-04 	 3.505710e+07 	
3.16000000e+06 	 1.701979e-04 	 3.445365e+07 	
3.20000000e+06 	 1.612588e-04 	 3.386928e+07 	
3.24000000e+06 	 1.529064e-04 	 3.330311e+07 	
3.28000000e+06 	 1.450980e-04 	 3.275433e+07 	
3.32000000e+06 	 1.377922e-04 	 3.222218e+07 	
3.36000000e+06 	 1.309468e-04 	 3.170590e+07 	
3.40000000e+06 	 1.245299e-04 	 3.120484e+07 	
3.44000000e+06 	 1.185077e-04 	 3.071832e+07 	
3.48000000e+06 	 1.128509e-04 	 3.024575e+07 	
3.52000000e+06 	 1.075341e-04 	 2.978655e+07 	
3.56000000e+06 	 1.025320e-04 	 2.934017e+07 	
3.60000000e+06 	 9.782210e-05 	 2.890609e+07 	
3.64000000e+06 	 9.338429e-05 	 2.848383e+07 	
3.68000000e+06 	 8.919949e-05 	 2.807291e+07 	
3.72000000e+06 	 8.525068e-05 	 2.767290e+07 	
3.76000000e+06 	 8.152157e-05 	 2.728337e+07 	
3.80000000e+06 	 7.799742e-05 	 2.690394e+07 	
3.84000000e+06 	 7.466462e-05 	 2.653421e+07 	
3.88000000e+06 	 7.151105e-05 	 2.617384e+07 	
3.92000000e+06 	 6.852484e-05 	 2.582247e+07 	
3.96000000e+06 	 6.569530e-05 	 2.547979e+07 	
4.00000000e+06 	 6.301271e-05 	 2.514549e+07 	
4.04000000e+06 	 6.046778e-05 	 2.481925e+07 	
4.08000000e+06 	 5.805204e-05 	 2.450081e+07 	
4.12000000e+06 	 5.575755e-05 	 2.418990e+07 	
4.16000000e+06 	 5.357700e-05 	 2.388625e+07 	
4.20000000e+06 	 5.150361e-05 	 2.358963e+07 	
4.24000000e+06 	 4.953102e-05 	 2.329978e+07 	
4.28000000e+06 	 4.765338e-05 	 2.301650e+07 	
4.32000000e+06 	 4.586509e-05 	 2.273957e+07 	
4.36000000e+06 	 4.416113e-05 	 2.246877e+07 	
4.40000000e+06 	 4.253663e-05 	 2.220392e+07 	
4.44000000e+06 	 4.098714e-05 	 2.194482e+07 	
4.48000000e+06 	 3.950852e-05 	 2.169129e+07 	
4.52000000e+06 	 3.809682e-05 	 2.144316e+07 	
4.56000000e+06 	 3.674846e-05 	 2.120026e+07 	
4.60000000e+06 	 3.545995e-05 	 2.096244e+07 	
4.64000000e+06 	 3.422808e-05 	 2.072953e+07 	
4.68000000e+06 	 3.304989e-05 	 2.050139e+07 	
4.72000000e+06 	 3.192254e-05 	 2.027788e+07 	
4.76000000e+06 	 3.084337e-05 	 2.005887e+07 	
4.80000000e+06 	 2.980992e-05 	 1.984422e+07 	
4.84000000e+06 	 2.881983e-05 	 1.963380e+07 	
4.88000000e+06 	 2.787094e-05 	 1.942750e+07 	
4.92000000e+06 	 2.696114e-05 	 1.922520e+07 	
4.96000000e+06 	 2.608850e-05 	 1.902678e+07 	
5.00000000e+06 	 2.525120e-05 	 1.883214e+07 	
5.04000000e+06 	 2.444750e-05 	 1.864118e+07 	
5.08000000e+06 	 2.367578e-05 	 1.845378e+07 	
5.12000000e+06 	 2.293449e-05 	 1.826987e+07 	
5.16000000e+06 	 2.222218e-05 	 1.808933e+07 	
5.20000000e+06 	 2.153749e-05 	 1.791209e+07 	
5.24000000e+06 	 2.087913e-05 	 1.773805e+07 	
5.28000000e+06 	 2.024586e-05 	 1.756713e+07 	
5.32000000e+06 	 1.963654e-05 	 1.739925e+07 	
5.36000000e+06 	 1.905007e-05 	 1.723434e+07 	
5.40000000e+06 	 1.848541e-05 	 1.707231e+07 	
5.44000000e+06 	 1.794158e-05 	 1.691309e+07 	
5.48000000e+06 	 1.741765e-05 	 1.675661e+07 	
5.52000000e+06 	 1.691273e-05 	 1.660280e+07 	
5.56000000e+06 	 1.642601e-05 	 1.645160e+07 	
5.60000000e+06 	 1.595667e-05 	 1.630295e+07 	
5.64000000e+06 	 1.550397e-05 	 1.615677e+07 	
5.68000000e+06 	 1.506720e-05 	 1.601301e+07 	
5.72000000e+06 	 1.464568e-05 	 1.587162e+07 	
5.76000000e+06 	 1.423876e-05 	 1.573253e+07 	
5.80000000e+06 	 1.384582e-05 	 1.559570e+07 	
5.84000000e+06 	 1.346629e-05 	 1.546106e+07 	
5.88000000e+06 	 1.309961e-05 	 1.532857e+07 	
5.92000000e+06 	 1.274526e-05 	 1.519817e+07 	
5.96000000e+06 	 1.240273e-05 	 1.506983e+07 	
6.00000000e+06 	 1.207154e-05 	 1.494349e+07 	
6.04000000e+06 	 1.175124e-05 	 1.481910e+07 	
6.08000000e+06 	 1.144139e-05 	 1.469663e+07 	
6.12000000e+06 	 1.114159e-05 	 1.457603e+07 	
6.16000000e+06 	 1.085142e-05 	 1.445726e+07 	
6.20000000e+06 	 1.057053e-05 	 1.434027e+07 	
6.24000000e+06 	 1.029854e-05 	 1.422504e+07 	
6.28000000e+06 	 1.003512e-05 	 1.411151e+07 	
6.32000000e+06 	 9.779936e-06 	 1.399967e+07 	
6.36000000e+06 	 9.532676e-06 	 1.388946e+07 	
6.40000000e+06 	 9.293042e-06 	 1.378085e+07 	
6.44000000e+06 	 9.060747e-06 	 1.367381e+07 	
6.48000000e+06 	 8.835519e-06 	 1.356832e+07 	
6.52000000e+06 	 8.617095e-06 	 1.346432e+07 	
6.56000000e+06 	 8.405225e-06 	 1.336180e+07 	
6.60000000e+06 	 8.199671e-06 	 1.326073e+07 	
6.64000000e+06 	 8.000203e-06 	 1.316106e+07 	
6.68000000e+06 	 7.806601e-06 	 1.306279e+07 	
6.72000000e+06 	 7.618656e-06 	 1.296587e+07 	
6.76000000e+06 	 7.436166e-06 	 1.287028e+07 	
6.80000000e+06 	 7.258938e-06 	 1.277599e+07 	
6.84000000e+06 	 7.086786e-06 	 1.268299e+07 	
6.88000000e+06 	 6.919536e-06 	 1.259123e+07 	
6.92000000e+06 	 6.757015e-06 	 1.250071e+07 	
6.96000000e+06 	 6.599059e-06 	 1.241138e+07 	
7.00000000e+06 	 6.445515e-06 	 1.232324e+07 	
7.04000000e+06 	 6.296230e-06 	 1.223626e+07 	
7.08000000e+06 	 6.151060e-06 	 1.215041e+07 	
7.12000000e+06 	 6.009867e-06 	 1.206568e+07 	
7.16000000e+06 	 5.872518e-06 	 1.198205e+07 	
7.20000000e+06 	 5.738884e-06 	 1.189948e+07 	
7.24000000e+06 	 5.608843e-06 	 1.181797e+07 	
7.28000000e+06 	 5.482277e-06 	 1.173750e+07 	
7.32000000e+06 	 5.359072e-06 	 1.165803e+07 	
7.36000000e+06 	 5.239118e-06 	 1.157957e+07 	
7.40000000e+06 	 5.122312e-06 	 1.150208e+07 	
7.44000000e+06 	 5.008550e-06 	 1.142555e+07 	
7.48000000e+06 	 4.897737e-06 	 1.134997e+07 	
7.52000000e+06 	 4.789779e-06 	 1.127531e+07 	
7.56000000e+06 	 4.684585e-06 	 1.120157e+07 	
7.60000000e+06 	 4.582069e-06 	 1.112871e+07 	
7.64000000e+06 	 4.482146e-06 	 1.105674e+07 	
7.68000000e+06 	 4.384736e-06 	 1.098563e+07 	
7.72000000e+06 	 4.289763e-06 	 1.091536e+07 	
7.76000000e+06 	 4.197149e-06 	 1.084593e+07 	
7.80000000e+06 	 4.106825e-06 	 1.077732e+07 	
7.84000000e+06 	 4.018719e-06 	 1.070951e+07 	
7.88000000e+06 	 3.932766e-06 	 1.064250e+07 	
7.92000000e+06 	 3.848900e-06 	 1.057626e+07 	
8.00000000e+06 	 3.687180e-06 	 1.044607e+07 	
8.00050050e+06 	 3.686193e-06 	 1.044526e+07 	
8.00100100e+06 	 3.685206e-06 	 1.044446e+07 	
8.00150150e+06 	 3.684220e-06 	 1.044365e+07 	
8.00200200e+06 	 3.683233e-06 	 1.044285e+07 	
8.00250250e+06 	 3.682247e-06 	 1.044204e+07 	
8.00300300e+06 	 3.681261e-06 	 1.044124e+07 	
8.00350350e+06 	 3.680276e-06 	 1.044043e+07 	
8.00400400e+06 	 3.679291e-06 	 1.043963e+07 	
8.00450450e+06 	 3.678306e-06 	 1.043883e+07 	
8.00500501e+06 	 3.677321e-06 	 1.043802e+07 	
8.00550551e+06 	 3.676337e-06 	 1.043722e+07 	
8.00600601e+06 	 3.675353e-06 	 1.043641e+07 	
8.00650651e+06 	 3.674369e-06 	 1.043561e+07 	
8.00700701e+06 	 3.673386e-06 	 1.043481e+07 	
8.00750751e+06 	 3.672403e-06 	 1.043400e+07 	
8.00800801e+06 	 3.671420e-06 	 1.043320e+07 	
8.00850851e+06 	 3.670437e-06 	 1.043240e+07 	
8.00900901e+06 	 3.669455e-06 	 1.043159e+07 	
8.00950951e+06 	 3.668473e-06 	 1.043079e+07 	
8.01001001e+06 	 3.667491e-06 	 1.042999e+07 	
8.01051051e+06 	 3.666510e-06 	 1.042919e+07 	
8.01101101e+06 	 3.665529e-06 	 1.042838e+07 	
8.01151151e+06 	 3.664548e-06 	 1.042758e+07 	
8.01201201e+06 	 3.663568e-06 	 1.042678e+07 	
8.01251251e+06 	 3.662588e-06 	 1.042598e+07 	
8.01301301e+06 	 3.661608e-06 	 1.042517e+07 	
8.01351351e+06 	 3.660628e-06 	 1.042437e+07 	
8.01401401e+06 	 3.659649e-06 	 1.042357e+07 	
8.01451451e+06 	 3.658670e-06 	 1.042277e+07 	
8.01501502e+06 	 3.657691e-06 	 1.042197e+07 	
8.01551552e+06 	 3.656713e-06 	 1.042116e+07 	
8.01601602e+06 	 3.655735e-06 	 1.042036e+07 	
8.01651652e+06 	 3.654757e-06 	 1.041956e+07 	
8.01701702e+06 	 3.653780e-06 	 1.041876e+07 	
8.01751752e+06 	 3.652803e-06 	 1.041796e+07 	
8.01801802e+06 	 3.651826e-06 	 1.041716e+07 	
8.01851852e+06 	 3.650849e-06 	 1.041636e+07 	
8.01901902e+06 	 3.649873e-06 	 1.041556e+07 	
8.01951952e+06 	 3.648897e-06 	 1.041475e+07 	
8.02002002e+06 	 3.647921e-06 	 1.041395e+07 	
8.02052052e+06 	 3.646945e-06 	 1.041315e+07 	
8.02102102e+06 	 3.645970e-06 	 1.041235e+07 	
8.02152152e+06 	 3.644996e-06 	 1.041155e+07 	
8.02202202e+06 	 3.644021e-06 	 1.041075e+07 	
8.02252252e+06 	 3.643047e-06 	 1.040995e+07 	
8.02302302e+06 	 3.642073e-06 	 1.040915e+07 	
8.02352352e+06 	 3.641099e-06 	 1.040835e+07 	
8.02402402e+06 	 3.640126e-06 	 1.040755e+07 	
8.02452452e+06 	 3.639153e-06 	 1.040675e+07 	
8.02502503e+06 	 3.638180e-06 	 1.040595e+07 	
8.02552553e+06 	 3.637207e-06 	 1.040515e+07 	
8.02602603e+06 	 3.636235e-06 	 1.040436e+07 	
8.02652653e+06 	 3.635263e-06 	 1.040356e+07 	
8.02702703e+06 	 3.634292e-06 	 1.040276e+07 	
8.02752753e+06 	 3.633320e-06 	 1.040196e+07 	
8.02802803e+06 	 3.632349e-06 	 1.040116e+07 	
8.02852853e+06 	 3.631378e-06 	 1.040036e+07 	
8.02902903e+06 	 3.630408e-06 	 1.039956e+07 	
8.02952953e+06 	 3.629438e-06 	 1.039876e+07 	
8.03003003e+06 	 3.628468e-06 	 1.039797e+07 	
8.03053053e+06 	 3.627498e-06 	 1.039717e+07 	
8.03103103e+06 	 3.626529e-06 	 1.039637e+07 	
8.03153153e+06 	 3.625560e-06 	 1.039557e+07 	
8.03203203e+06 	 3.624591e-06 	 1.039477e+07 	
8.03253253e+06 	 3.623623e-06 	 1.039398e+07 	
8.03303303e+06 	 3.622655e-06 	 1.039318e+07 	
8.03353353e+06 	 3.621687e-06 	 1.039238e+07 	
8.03403403e+06 	 3.620720e-06 	 1.039158e+07 	
8.03453453e+06 	 3.619752e-06 	 1.039079e+07 	
8.03503504e+06 	 3.618785e-06 	 1.038999e+07 	
8.03553554e+06 	 3.617819e-06 	 1.038919e+07 	
8.03603604e+06 	 3.616852e-06 	 1.038839e+07 	
8.03653654e+06 	 3.615886e-06 	 1.038760e+07 	
8.03703704e+06 	 3.614920e-06 	 1.038680e+07 	
8.03753754e+06 	 3.613955e-06 	 1.038600e+07 	
8.03803804e+06 	 3.612990e-06 	 1.038521e+07 	
8.03853854e+06 	 3.612025e-06 	 1.038441e+07 	
